#monomer conc (mmol)    rate constant k   S=ln(conc/ce)    deltaF    alpha    p(n)     ln(J)
#ce = 0.36 mmol
#deltaF = F(n=2)-F(n=1) 
#ln(J) = ln(k) + ln(alpha) + ln(p(n)) + S

0.38    0.00072174	     0.054067221	    2.571186207	     1.076444812       0.624164066	    -7.577456261			
0.4	    0.001195869	     0.105360516	    2.519892912	     1.080468223       0.830824552	    -6.731463801		   
0.5	    0.006776675	     0.328504067	    2.296749361	     1.100585279       0.990277102	    -4.579693054	       
0.6	    0.01796632	     0.510825624	    2.114427804	     1.120702335       0.999022468	    -3.395453179	       
0.7	    0.034134586	     0.664976304	    1.960277124	     1.140819391       0.999806832	    -2.580914276			
0.8	    0.05217355	     0.798507696	    1.826745732	     1.160936447       0.999975201	    -2.005469758			
0.9	    0.069479184	     0.916290732	    1.708962696	     1.181053503       0.999993648	    -1.584036862			
1	    0.086339383	     1.021651248	    1.603602181	     1.201170559       0.99999819 	    -1.244523452			
1.1	    0.100710918	     1.116961427	    1.508292001	     1.221287614       0.999999582	    -0.978634327			
1.2	    0.114002727	     1.203972804	    1.421280624	     1.24140467        0.99999983	    -0.751316739			
1.3	    0.125717059	     1.284015512	    1.341237916	     1.261521726       0.999999959	    -0.55738728	    		
1.4	    0.13610868	     1.358123484	    1.267129944	     1.281638782       0.999999985	    -0.388038567	    	
1.5	    0.145532869	     1.427116356	    1.198137072	     1.301755838       0.999999995	    -0.236522969			
1.6	    0.152920163	     1.491654877	    1.133598551	     1.321872894       0.999999998	    -0.107134837		   
1.7	    0.159793164	     1.552279499	    1.072973929	     1.34198995        0.999999999	    0.01255802	    		
1.8	    0.166408179	     1.609437912	    1.015815516	     1.362107005       1	            0.125159084	    		
1.9	    0.171581328	     1.663505134	    0.961748294	     1.382224061       1	            0.224501064	    		
2	    0.17667189	     1.714798428	    0.910455	     1.402341117       1	            0.3194805	    		
2.1	    0.180385918	     1.763588592	    0.861664836	     1.422458173       1	            0.403318339	    	   
2.2	    0.182811346	     1.810108608	    0.81514482	     1.442575229       1	            0.477237924	    	   
2.3	    0.187894343	     1.85456037	        0.770693058	     1.462692285       1	            0.562963661	    	   
2.4	    0.1910019	     1.897119985	    0.728133443	     1.482809341       1	            0.635586576	    		
2.5	    0.194551015	     1.937941979	    0.687311449	     1.502926396       1	            0.708295256	    		
2.6	    0.197942585	     1.977162693	    0.648090736	     1.523043452       1	            0.778095031	    		
2.7	    0.20008964	     2.014903021	    0.610350408	     1.543160508       1	            0.8397458	    	   
2.8	    0.202876793	     2.051270665	    0.573982763	     1.563277564       1	            0.902898869	    	   
2.9	    0.204855904	     2.086361985	    0.538891444	     1.58339462        1	            0.960484568	    	   
3	    0.206884709	     2.120263536	    0.504989892	     1.603511676       1	            1.016865957	    	   
3.5	    0.213316041	     2.274414216	    0.350839212	     1.704096955       1	            1.262469087	    	   
4	    0.220412877	     2.407945609	    0.217307819	     1.804682234       1	            1.486077361	    	   
6	    0.230212647	     2.813410717	    -0.188157289     2.207023352       1	            2.136303581	           
        
